"Energy (eV)"	"Flux (ph/s/0.1%B.W.)"
1.00000e+1	2.78223e+13
1.43327e+2	1.64108e+14
2.76653e+2	2.53910e+14
4.09980e+2	3.29159e+14
5.43307e+2	3.95882e+14
6.76633e+2	4.56653e+14
8.09960e+2	5.12878e+14
9.43287e+2	5.65433e+14
1.07661e+3	6.14911e+14
1.20994e+3	6.61739e+14
1.34327e+3	7.06236e+14
1.47659e+3	7.48652e+14
1.60992e+3	7.89185e+14
1.74325e+3	8.27997e+14
1.87657e+3	8.65224e+14
2.00990e+3	9.00979e+14
2.14323e+3	9.35362e+14
2.27655e+3	9.68455e+14
2.40988e+3	1.00033e+15
2.54321e+3	1.03106e+15
2.67653e+3	1.06071e+15
2.80986e+3	1.08931e+15
2.94319e+3	1.11692e+15
3.07651e+3	1.14359e+15
3.20984e+3	1.16935e+15
3.34317e+3	1.19424e+15
3.47649e+3	1.21829e+15
3.60982e+3	1.24154e+15
3.74315e+3	1.26401e+15
3.87647e+3	1.28573e+15
4.00980e+3	1.30672e+15
4.14313e+3	1.32701e+15
4.27645e+3	1.34663e+15
4.40978e+3	1.36558e+15
4.54311e+3	1.38390e+15
4.67643e+3	1.40160e+15
4.80976e+3	1.41870e+15
4.94309e+3	1.43521e+15
5.07641e+3	1.45116e+15
5.20974e+3	1.46655e+15
5.34307e+3	1.48141e+15
5.47639e+3	1.49574e+15
5.60972e+3	1.50957e+15
5.74305e+3	1.52290e+15
5.87637e+3	1.53574e+15
6.00970e+3	1.54812e+15
6.14303e+3	1.56003e+15
6.27635e+3	1.57150e+15
6.40968e+3	1.58253e+15
6.54301e+3	1.59313e+15
6.67633e+3	1.60331e+15
6.80966e+3	1.61309e+15
6.94299e+3	1.62248e+15
7.07631e+3	1.63147e+15
7.20964e+3	1.64009e+15
7.34297e+3	1.64833e+15
7.47629e+3	1.65622e+15
7.60962e+3	1.66375e+15
7.74295e+3	1.67094e+15
7.87627e+3	1.67779e+15
8.00960e+3	1.68431e+15
8.14293e+3	1.69051e+15
8.27625e+3	1.69639e+15
8.40958e+3	1.70196e+15
8.54291e+3	1.70724e+15
8.67623e+3	1.71222e+15
8.80956e+3	1.71691e+15
8.94289e+3	1.72132e+15
9.07621e+3	1.72545e+15
9.20954e+3	1.72931e+15
9.34287e+3	1.73292e+15
9.47619e+3	1.73626e+15
9.60952e+3	1.73935e+15
9.74285e+3	1.74220e+15
9.87617e+3	1.74480e+15
1.00095e+4	1.74717e+15
1.01428e+4	1.74931e+15
1.02762e+4	1.75122e+15
1.04095e+4	1.75291e+15
1.05428e+4	1.75439e+15
1.06761e+4	1.75565e+15
1.08095e+4	1.75671e+15
1.09428e+4	1.75757e+15
1.10761e+4	1.75823e+15
1.12094e+4	1.75869e+15
1.13428e+4	1.75897e+15
1.14761e+4	1.75906e+15
1.16094e+4	1.75897e+15
1.17427e+4	1.75871e+15
1.18761e+4	1.75827e+15
1.20094e+4	1.75767e+15
1.21427e+4	1.75690e+15
1.22761e+4	1.75597e+15
1.24094e+4	1.75488e+15
1.25427e+4	1.75364e+15
1.26760e+4	1.75224e+15
1.28094e+4	1.75070e+15
1.29427e+4	1.74902e+15
1.30760e+4	1.74720e+15
1.32093e+4	1.74523e+15
1.33427e+4	1.74314e+15
1.34760e+4	1.74091e+15
1.36093e+4	1.73856e+15
1.37426e+4	1.73608e+15
1.38760e+4	1.73348e+15
1.40093e+4	1.73076e+15
1.41426e+4	1.72793e+15
1.42760e+4	1.72498e+15
1.44093e+4	1.72192e+15
1.45426e+4	1.71875e+15
1.46759e+4	1.71548e+15
1.48093e+4	1.71210e+15
1.49426e+4	1.70863e+15
1.50759e+4	1.70505e+15
1.52092e+4	1.70138e+15
1.53426e+4	1.69762e+15
1.54759e+4	1.69377e+15
1.56092e+4	1.68983e+15
1.57425e+4	1.68580e+15
1.58759e+4	1.68169e+15
1.60092e+4	1.67750e+15
1.61425e+4	1.67323e+15
1.62759e+4	1.66888e+15
1.64092e+4	1.66446e+15
1.65425e+4	1.65996e+15
1.66758e+4	1.65539e+15
1.68092e+4	1.65075e+15
1.69425e+4	1.64605e+15
1.70758e+4	1.64128e+15
1.72091e+4	1.63644e+15
1.73425e+4	1.63155e+15
1.74758e+4	1.62659e+15
1.76091e+4	1.62158e+15
1.77424e+4	1.61651e+15
1.78758e+4	1.61138e+15
1.80091e+4	1.60620e+15
1.81424e+4	1.60097e+15
1.82758e+4	1.59569e+15
1.84091e+4	1.59036e+15
1.85424e+4	1.58498e+15
1.86757e+4	1.57956e+15
1.88091e+4	1.57410e+15
1.89424e+4	1.56859e+15
1.90757e+4	1.56304e+15
1.92090e+4	1.55745e+15
1.93424e+4	1.55182e+15
1.94757e+4	1.54616e+15
1.96090e+4	1.54046e+15
1.97423e+4	1.53473e+15
1.98757e+4	1.52896e+15
2.00090e+4	1.52316e+15
2.01423e+4	1.51733e+15
2.02757e+4	1.51147e+15
2.04090e+4	1.50559e+15
2.05423e+4	1.49967e+15
2.06756e+4	1.49373e+15
2.08090e+4	1.48777e+15
2.09423e+4	1.48178e+15
2.10756e+4	1.47577e+15
2.12089e+4	1.46973e+15
2.13423e+4	1.46368e+15
2.14756e+4	1.45761e+15
2.16089e+4	1.45152e+15
2.17422e+4	1.44541e+15
2.18756e+4	1.43928e+15
2.20089e+4	1.43314e+15
2.21422e+4	1.42698e+15
2.22756e+4	1.42082e+15
2.24089e+4	1.41463e+15
2.25422e+4	1.40844e+15
2.26755e+4	1.40223e+15
2.28089e+4	1.39602e+15
2.29422e+4	1.38979e+15
2.30755e+4	1.38355e+15
2.32088e+4	1.37731e+15
2.33422e+4	1.37106e+15
2.34755e+4	1.36480e+15
2.36088e+4	1.35854e+15
2.37421e+4	1.35227e+15
2.38755e+4	1.34600e+15
2.40088e+4	1.33973e+15
2.41421e+4	1.33345e+15
2.42755e+4	1.32717e+15
2.44088e+4	1.32089e+15
2.45421e+4	1.31460e+15
2.46754e+4	1.30832e+15
2.48088e+4	1.30204e+15
2.49421e+4	1.29576e+15
2.50754e+4	1.28948e+15
2.52087e+4	1.28320e+15
2.53421e+4	1.27692e+15
2.54754e+4	1.27065e+15
2.56087e+4	1.26438e+15
2.57420e+4	1.25812e+15
2.58754e+4	1.25186e+15
2.60087e+4	1.24560e+15
2.61420e+4	1.23935e+15
2.62754e+4	1.23311e+15
2.64087e+4	1.22688e+15
2.65420e+4	1.22065e+15
2.66753e+4	1.21443e+15
2.68087e+4	1.20822e+15
2.69420e+4	1.20201e+15
2.70753e+4	1.19582e+15
2.72086e+4	1.18963e+15
2.73420e+4	1.18346e+15
2.74753e+4	1.17729e+15
2.76086e+4	1.17113e+15
2.77419e+4	1.16499e+15
2.78753e+4	1.15886e+15
2.80086e+4	1.15273e+15
2.81419e+4	1.14662e+15
2.82753e+4	1.14053e+15
2.84086e+4	1.13444e+15
2.85419e+4	1.12837e+15
2.86752e+4	1.12231e+15
2.88086e+4	1.11627e+15
2.89419e+4	1.11024e+15
2.90752e+4	1.10422e+15
2.92085e+4	1.09822e+15
2.93419e+4	1.09223e+15
2.94752e+4	1.08626e+15
2.96085e+4	1.08031e+15
2.97418e+4	1.07437e+15
2.98752e+4	1.06844e+15
3.00085e+4	1.06253e+15
3.01418e+4	1.05664e+15
3.02752e+4	1.05076e+15
3.04085e+4	1.04490e+15
3.05418e+4	1.03906e+15
3.06751e+4	1.03324e+15
3.08085e+4	1.02743e+15
3.09418e+4	1.02164e+15
3.10751e+4	1.01587e+15
3.12084e+4	1.01012e+15
3.13418e+4	1.00438e+15
3.14751e+4	9.98665e+14
3.16084e+4	9.92967e+14
3.17417e+4	9.87288e+14
3.18751e+4	9.81628e+14
3.20084e+4	9.75988e+14
3.21417e+4	9.70365e+14
3.22751e+4	9.64763e+14
3.24084e+4	9.59181e+14
3.25417e+4	9.53619e+14
3.26750e+4	9.48077e+14
3.28084e+4	9.42555e+14
3.29417e+4	9.37053e+14
3.30750e+4	9.31572e+14
3.32083e+4	9.26111e+14
3.33417e+4	9.20670e+14
3.34750e+4	9.15250e+14
3.36083e+4	9.09851e+14
3.37416e+4	9.04473e+14
3.38750e+4	8.99116e+14
3.40083e+4	8.93779e+14
3.41416e+4	8.88464e+14
3.42750e+4	8.83170e+14
3.44083e+4	8.77897e+14
3.45416e+4	8.72646e+14
3.46749e+4	8.67416e+14
3.48083e+4	8.62207e+14
3.49416e+4	8.57020e+14
3.50749e+4	8.51855e+14
3.52082e+4	8.46711e+14
3.53416e+4	8.41590e+14
3.54749e+4	8.36490e+14
3.56082e+4	8.31411e+14
3.57415e+4	8.26355e+14
3.58749e+4	8.21321e+14
3.60082e+4	8.16309e+14
3.61415e+4	8.11318e+14
3.62749e+4	8.06350e+14
3.64082e+4	8.01404e+14
3.65415e+4	7.96480e+14
3.66748e+4	7.91578e+14
3.68082e+4	7.86698e+14
3.69415e+4	7.81841e+14
3.70748e+4	7.77006e+14
3.72081e+4	7.72193e+14
3.73415e+4	7.67402e+14
3.74748e+4	7.62634e+14
3.76081e+4	7.57887e+14
3.77414e+4	7.53163e+14
3.78748e+4	7.48462e+14
3.80081e+4	7.43783e+14
3.81414e+4	7.39126e+14
3.82748e+4	7.34491e+14
3.84081e+4	7.29878e+14
3.85414e+4	7.25288e+14
3.86747e+4	7.20720e+14
3.88081e+4	7.16175e+14
3.89414e+4	7.11651e+14
3.90747e+4	7.07150e+14
3.92080e+4	7.02671e+14
3.93414e+4	6.98215e+14
3.94747e+4	6.93780e+14
3.96080e+4	6.89368e+14
3.97413e+4	6.84978e+14
3.98747e+4	6.80610e+14
4.00080e+4	6.76264e+14
4.01413e+4	6.71940e+14
4.02747e+4	6.67638e+14
4.04080e+4	6.63358e+14
4.05413e+4	6.59100e+14
4.06746e+4	6.54864e+14
4.08080e+4	6.50650e+14
4.09413e+4	6.46458e+14
4.10746e+4	6.42288e+14
4.12079e+4	6.38140e+14
4.13413e+4	6.34013e+14
4.14746e+4	6.29908e+14
4.16079e+4	6.25825e+14
4.17412e+4	6.21763e+14
4.18746e+4	6.17723e+14
4.20079e+4	6.13705e+14
4.21412e+4	6.09708e+14
4.22746e+4	6.05732e+14
4.24079e+4	6.01778e+14
4.25412e+4	5.97845e+14
4.26745e+4	5.93934e+14
4.28079e+4	5.90043e+14
4.29412e+4	5.86174e+14
4.30745e+4	5.82326e+14
4.32078e+4	5.78500e+14
4.33412e+4	5.74694e+14
4.34745e+4	5.70909e+14
4.36078e+4	5.67145e+14
4.37411e+4	5.63402e+14
4.38745e+4	5.59680e+14
4.40078e+4	5.55978e+14
4.41411e+4	5.52297e+14
4.42745e+4	5.48637e+14
4.44078e+4	5.44998e+14
4.45411e+4	5.41378e+14
4.46744e+4	5.37780e+14
4.48078e+4	5.34201e+14
4.49411e+4	5.30643e+14
4.50744e+4	5.27105e+14
4.52077e+4	5.23588e+14
4.53411e+4	5.20090e+14
4.54744e+4	5.16612e+14
4.56077e+4	5.13155e+14
4.57410e+4	5.09717e+14
4.58744e+4	5.06299e+14
4.60077e+4	5.02901e+14
4.61410e+4	4.99522e+14
4.62744e+4	4.96163e+14
4.64077e+4	4.92824e+14
4.65410e+4	4.89504e+14
4.66743e+4	4.86204e+14
4.68077e+4	4.82923e+14
4.69410e+4	4.79661e+14
4.70743e+4	4.76418e+14
4.72076e+4	4.73194e+14
4.73410e+4	4.69990e+14
4.74743e+4	4.66804e+14
4.76076e+4	4.63637e+14
4.77409e+4	4.60490e+14
4.78743e+4	4.57360e+14
4.80076e+4	4.54250e+14
4.81409e+4	4.51158e+14
4.82743e+4	4.48084e+14
4.84076e+4	4.45029e+14
4.85409e+4	4.41993e+14
4.86742e+4	4.38974e+14
4.88076e+4	4.35974e+14
4.89409e+4	4.32992e+14
4.90742e+4	4.30028e+14
4.92075e+4	4.27082e+14
4.93409e+4	4.24154e+14
4.94742e+4	4.21244e+14
4.96075e+4	4.18351e+14
4.97408e+4	4.15476e+14
4.98742e+4	4.12619e+14
5.00075e+4	4.09779e+14
5.01408e+4	4.06956e+14
5.02742e+4	4.04151e+14
5.04075e+4	4.01363e+14
5.05408e+4	3.98593e+14
5.06741e+4	3.95839e+14
5.08075e+4	3.93103e+14
5.09408e+4	3.90383e+14
5.10741e+4	3.87680e+14
5.12074e+4	3.84995e+14
5.13408e+4	3.82325e+14
5.14741e+4	3.79673e+14
5.16074e+4	3.77037e+14
5.17407e+4	3.74417e+14
5.18741e+4	3.71814e+14
5.20074e+4	3.69228e+14
5.21407e+4	3.66657e+14
5.22741e+4	3.64103e+14
5.24074e+4	3.61565e+14
5.25407e+4	3.59042e+14
5.26740e+4	3.56536e+14
5.28074e+4	3.54045e+14
5.29407e+4	3.51571e+14
5.30740e+4	3.49112e+14
5.32073e+4	3.46668e+14
5.33407e+4	3.44240e+14
5.34740e+4	3.41828e+14
5.36073e+4	3.39431e+14
5.37406e+4	3.37049e+14
5.38740e+4	3.34683e+14
5.40073e+4	3.32332e+14
5.41406e+4	3.29995e+14
5.42740e+4	3.27674e+14
5.44073e+4	3.25368e+14
5.45406e+4	3.23076e+14
5.46739e+4	3.20799e+14
5.48073e+4	3.18537e+14
5.49406e+4	3.16290e+14
5.50739e+4	3.14057e+14
5.52072e+4	3.11838e+14
5.53406e+4	3.09634e+14
5.54739e+4	3.07444e+14
5.56072e+4	3.05269e+14
5.57405e+4	3.03107e+14
5.58739e+4	3.00960e+14
5.60072e+4	2.98827e+14
5.61405e+4	2.96707e+14
5.62739e+4	2.94602e+14
5.64072e+4	2.92510e+14
5.65405e+4	2.90432e+14
5.66738e+4	2.88367e+14
5.68072e+4	2.86316e+14
5.69405e+4	2.84279e+14
5.70738e+4	2.82254e+14
5.72071e+4	2.80244e+14
5.73405e+4	2.78246e+14
5.74738e+4	2.76262e+14
5.76071e+4	2.74291e+14
5.77404e+4	2.72332e+14
5.78738e+4	2.70387e+14
5.80071e+4	2.68455e+14
5.81404e+4	2.66535e+14
5.82738e+4	2.64628e+14
5.84071e+4	2.62734e+14
5.85404e+4	2.60853e+14
5.86737e+4	2.58984e+14
5.88071e+4	2.57127e+14
5.89404e+4	2.55283e+14
5.90737e+4	2.53451e+14
5.92070e+4	2.51631e+14
5.93404e+4	2.49824e+14
5.94737e+4	2.48028e+14
5.96070e+4	2.46245e+14
5.97403e+4	2.44474e+14
5.98737e+4	2.42714e+14
6.00070e+4	2.40967e+14
6.01403e+4	2.39231e+14
6.02737e+4	2.37506e+14
6.04070e+4	2.35794e+14
6.05403e+4	2.34093e+14
6.06736e+4	2.32403e+14
6.08070e+4	2.30725e+14
6.09403e+4	2.29058e+14
6.10736e+4	2.27403e+14
6.12069e+4	2.25759e+14
6.13403e+4	2.24125e+14
6.14736e+4	2.22503e+14
6.16069e+4	2.20892e+14
6.17402e+4	2.19292e+14
6.18736e+4	2.17703e+14
6.20069e+4	2.16125e+14
6.21402e+4	2.14557e+14
6.22736e+4	2.13000e+14
6.24069e+4	2.11454e+14
6.25402e+4	2.09918e+14
6.26735e+4	2.08393e+14
6.28069e+4	2.06878e+14
6.29402e+4	2.05373e+14
6.30735e+4	2.03879e+14
6.32068e+4	2.02395e+14
6.33402e+4	2.00921e+14
6.34735e+4	1.99458e+14
6.36068e+4	1.98004e+14
6.37401e+4	1.96561e+14
6.38735e+4	1.95127e+14
6.40068e+4	1.93703e+14
6.41401e+4	1.92289e+14
6.42735e+4	1.90885e+14
6.44068e+4	1.89491e+14
6.45401e+4	1.88106e+14
6.46734e+4	1.86731e+14
6.48068e+4	1.85365e+14
6.49401e+4	1.84009e+14
6.50734e+4	1.82662e+14
6.52067e+4	1.81324e+14
6.53401e+4	1.79996e+14
6.54734e+4	1.78677e+14
6.56067e+4	1.77367e+14
6.57400e+4	1.76066e+14
6.58734e+4	1.74774e+14
6.60067e+4	1.73492e+14
6.61400e+4	1.72218e+14
6.62734e+4	1.70953e+14
6.64067e+4	1.69697e+14
6.65400e+4	1.68449e+14
6.66733e+4	1.67211e+14
6.68067e+4	1.65981e+14
6.69400e+4	1.64759e+14
6.70733e+4	1.63547e+14
6.72066e+4	1.62342e+14
6.73400e+4	1.61146e+14
6.74733e+4	1.59959e+14
6.76066e+4	1.58780e+14
6.77399e+4	1.57609e+14
6.78733e+4	1.56446e+14
6.80066e+4	1.55291e+14
6.81399e+4	1.54145e+14
6.82733e+4	1.53007e+14
6.84066e+4	1.51876e+14
6.85399e+4	1.50754e+14
6.86732e+4	1.49640e+14
6.88066e+4	1.48533e+14
6.89399e+4	1.47434e+14
6.90732e+4	1.46343e+14
6.92065e+4	1.45260e+14
6.93399e+4	1.44184e+14
6.94732e+4	1.43116e+14
6.96065e+4	1.42056e+14
6.97398e+4	1.41003e+14
6.98732e+4	1.39958e+14
7.00065e+4	1.38920e+14
7.01398e+4	1.37889e+14
7.02732e+4	1.36865e+14
7.04065e+4	1.35849e+14
7.05398e+4	1.34840e+14
7.06731e+4	1.33839e+14
7.08065e+4	1.32844e+14
7.09398e+4	1.31857e+14
7.10731e+4	1.30876e+14
7.12064e+4	1.29903e+14
7.13398e+4	1.28936e+14
7.14731e+4	1.27976e+14
7.16064e+4	1.27024e+14
7.17397e+4	1.26078e+14
7.18731e+4	1.25138e+14
7.20064e+4	1.24206e+14
7.21397e+4	1.23280e+14
7.22731e+4	1.22361e+14
7.24064e+4	1.21448e+14
7.25397e+4	1.20542e+14
7.26730e+4	1.19642e+14
7.28064e+4	1.18749e+14
7.29397e+4	1.17862e+14
7.30730e+4	1.16982e+14
7.32063e+4	1.16108e+14
7.33397e+4	1.15240e+14
7.34730e+4	1.14379e+14
7.36063e+4	1.13523e+14
7.37396e+4	1.12674e+14
7.38730e+4	1.11831e+14
7.40063e+4	1.10994e+14
7.41396e+4	1.10163e+14
7.42730e+4	1.09338e+14
7.44063e+4	1.08519e+14
7.45396e+4	1.07706e+14
7.46729e+4	1.06898e+14
7.48063e+4	1.06097e+14
7.49396e+4	1.05301e+14
7.50729e+4	1.04511e+14
7.52062e+4	1.03727e+14
7.53396e+4	1.02949e+14
7.54729e+4	1.02176e+14
7.56062e+4	1.01408e+14
7.57395e+4	1.00647e+14
7.58729e+4	9.98905e+13
7.60062e+4	9.91398e+13
7.61395e+4	9.83945e+13
7.62729e+4	9.76546e+13
7.64062e+4	9.69201e+13
7.65395e+4	9.61909e+13
7.66728e+4	9.54671e+13
7.68062e+4	9.47485e+13
7.69395e+4	9.40351e+13
7.70728e+4	9.33269e+13
7.72061e+4	9.26239e+13
7.73395e+4	9.19260e+13
7.74728e+4	9.12331e+13
7.76061e+4	9.05453e+13
7.77394e+4	8.98626e+13
7.78728e+4	8.91848e+13
7.80061e+4	8.85119e+13
7.81394e+4	8.78440e+13
7.82728e+4	8.71810e+13
7.84061e+4	8.65227e+13
7.85394e+4	8.58693e+13
7.86727e+4	8.52207e+13
7.88061e+4	8.45768e+13
7.89394e+4	8.39377e+13
7.90727e+4	8.33032e+13
7.92060e+4	8.26733e+13
7.93394e+4	8.20481e+13
7.94727e+4	8.14275e+13
7.96060e+4	8.08114e+13
7.97393e+4	8.01998e+13
7.98727e+4	7.95927e+13
8.00060e+4	7.89901e+13
8.01393e+4	7.83919e+13
8.02727e+4	7.77980e+13
8.04060e+4	7.72086e+13
8.05393e+4	7.66235e+13
8.06726e+4	7.60426e+13
8.08060e+4	7.54661e+13
8.09393e+4	7.48938e+13
8.10726e+4	7.43257e+13
8.12059e+4	7.37618e+13
8.13393e+4	7.32020e+13
8.14726e+4	7.26464e+13
8.16059e+4	7.20949e+13
8.17392e+4	7.15474e+13
8.18726e+4	7.10040e+13
8.20059e+4	7.04645e+13
8.21392e+4	6.99291e+13
8.22726e+4	6.93976e+13
8.24059e+4	6.88700e+13
8.25392e+4	6.83464e+13
8.26725e+4	6.78266e+13
8.28059e+4	6.73106e+13
8.29392e+4	6.67985e+13
8.30725e+4	6.62902e+13
8.32058e+4	6.57856e+13
8.33392e+4	6.52847e+13
8.34725e+4	6.47876e+13
8.36058e+4	6.42942e+13
8.37391e+4	6.38044e+13
8.38725e+4	6.33182e+13
8.40058e+4	6.28356e+13
8.41391e+4	6.23567e+13
8.42725e+4	6.18812e+13
8.44058e+4	6.14093e+13
8.45391e+4	6.09410e+13
8.46724e+4	6.04760e+13
8.48058e+4	6.00146e+13
8.49391e+4	5.95566e+13
8.50724e+4	5.91019e+13
8.52057e+4	5.86507e+13
8.53391e+4	5.82028e+13
8.54724e+4	5.77583e+13
8.56057e+4	5.73170e+13
8.57390e+4	5.68791e+13
8.58724e+4	5.64444e+13
8.60057e+4	5.60129e+13
8.61390e+4	5.55847e+13
8.62724e+4	5.51596e+13
8.64057e+4	5.47378e+13
8.65390e+4	5.43190e+13
8.66723e+4	5.39034e+13
8.68057e+4	5.34909e+13
8.69390e+4	5.30815e+13
8.70723e+4	5.26751e+13
8.72056e+4	5.22718e+13
8.73390e+4	5.18715e+13
8.74723e+4	5.14742e+13
8.76056e+4	5.10798e+13
8.77389e+4	5.06884e+13
8.78723e+4	5.02999e+13
8.80056e+4	4.99143e+13
8.81389e+4	4.95317e+13
8.82723e+4	4.91518e+13
8.84056e+4	4.87749e+13
8.85389e+4	4.84007e+13
8.86722e+4	4.80294e+13
8.88056e+4	4.76608e+13
8.89389e+4	4.72950e+13
8.90722e+4	4.69320e+13
8.92055e+4	4.65716e+13
8.93389e+4	4.62140e+13
8.94722e+4	4.58591e+13
8.96055e+4	4.55068e+13
8.97388e+4	4.51572e+13
8.98722e+4	4.48102e+13
9.00055e+4	4.44658e+13
9.01388e+4	4.41239e+13
9.02722e+4	4.37847e+13
9.04055e+4	4.34480e+13
9.05388e+4	4.31139e+13
9.06721e+4	4.27822e+13
9.08055e+4	4.24531e+13
9.09388e+4	4.21264e+13
9.10721e+4	4.18022e+13
9.12054e+4	4.14804e+13
9.13388e+4	4.11611e+13
9.14721e+4	4.08441e+13
9.16054e+4	4.05296e+13
9.17387e+4	4.02174e+13
9.18721e+4	3.99076e+13
9.20054e+4	3.96001e+13
9.21387e+4	3.92949e+13
9.22721e+4	3.89921e+13
9.24054e+4	3.86915e+13
9.25387e+4	3.83932e+13
9.26720e+4	3.80971e+13
9.28054e+4	3.78033e+13
9.29387e+4	3.75117e+13
9.30720e+4	3.72223e+13
9.32053e+4	3.69351e+13
9.33387e+4	3.66501e+13
9.34720e+4	3.63672e+13
9.36053e+4	3.60864e+13
9.37386e+4	3.58078e+13
9.38720e+4	3.55313e+13
9.40053e+4	3.52569e+13
9.41386e+4	3.49845e+13
9.42720e+4	3.47143e+13
9.44053e+4	3.44460e+13
9.45386e+4	3.41798e+13
9.46719e+4	3.39157e+13
9.48053e+4	3.36535e+13
9.49386e+4	3.33933e+13
9.50719e+4	3.31351e+13
9.52052e+4	3.28788e+13
9.53386e+4	3.26245e+13
9.54719e+4	3.23721e+13
9.56052e+4	3.21216e+13
9.57385e+4	3.18731e+13
9.58719e+4	3.16264e+13
9.60052e+4	3.13816e+13
9.61385e+4	3.11386e+13
9.62719e+4	3.08975e+13
9.64052e+4	3.06583e+13
9.65385e+4	3.04208e+13
9.66718e+4	3.01852e+13
9.68052e+4	2.99513e+13
9.69385e+4	2.97193e+13
9.70718e+4	2.94890e+13
9.72051e+4	2.92604e+13
9.73385e+4	2.90336e+13
9.74718e+4	2.88085e+13
9.76051e+4	2.85851e+13
9.77384e+4	2.83634e+13
9.78718e+4	2.81435e+13
9.80051e+4	2.79251e+13
9.81384e+4	2.77085e+13
9.82718e+4	2.74935e+13
9.84051e+4	2.72802e+13
9.85384e+4	2.70684e+13
9.86717e+4	2.68583e+13
9.88051e+4	2.66498e+13
9.89384e+4	2.64429e+13
9.90717e+4	2.62375e+13
9.92050e+4	2.60338e+13
9.93384e+4	2.58315e+13
9.94717e+4	2.56309e+13
9.96050e+4	2.54317e+13
9.97383e+4	2.52341e+13
9.98717e+4	2.50380e+13
1.00005e+5	2.48434e+13
1.00138e+5	2.46503e+13
1.00272e+5	2.44586e+13
1.00405e+5	2.42684e+13
1.00538e+5	2.40797e+13
1.00672e+5	2.38924e+13
1.00805e+5	2.37066e+13
1.00938e+5	2.35221e+13
1.01072e+5	2.33391e+13
1.01205e+5	2.31575e+13
1.01338e+5	2.29773e+13
1.01472e+5	2.27984e+13
1.01605e+5	2.26209e+13
1.01738e+5	2.24448e+13
1.01872e+5	2.22701e+13
1.02005e+5	2.20966e+13
1.02138e+5	2.19245e+13
1.02272e+5	2.17537e+13
1.02405e+5	2.15843e+13
1.02538e+5	2.14161e+13
1.02672e+5	2.12492e+13
1.02805e+5	2.10836e+13
1.02938e+5	2.09193e+13
1.03072e+5	2.07562e+13
1.03205e+5	2.05944e+13
1.03338e+5	2.04338e+13
1.03471e+5	2.02745e+13
1.03605e+5	2.01164e+13
1.03738e+5	1.99595e+13
1.03871e+5	1.98038e+13
1.04005e+5	1.96492e+13
1.04138e+5	1.94959e+13
1.04271e+5	1.93438e+13
1.04405e+5	1.91928e+13
1.04538e+5	1.90430e+13
1.04671e+5	1.88944e+13
1.04805e+5	1.87468e+13
1.04938e+5	1.86005e+13
1.05071e+5	1.84552e+13
1.05205e+5	1.83111e+13
1.05338e+5	1.81681e+13
1.05471e+5	1.80261e+13
1.05605e+5	1.78853e+13
1.05738e+5	1.77456e+13
1.05871e+5	1.76069e+13
1.06005e+5	1.74693e+13
1.06138e+5	1.73327e+13
1.06271e+5	1.71973e+13
1.06405e+5	1.70628e+13
1.06538e+5	1.69294e+13
1.06671e+5	1.67970e+13
1.06805e+5	1.66657e+13
1.06938e+5	1.65353e+13
1.07071e+5	1.64060e+13
1.07205e+5	1.62776e+13
1.07338e+5	1.61503e+13
1.07471e+5	1.60239e+13
1.07605e+5	1.58985e+13
1.07738e+5	1.57741e+13
1.07871e+5	1.56506e+13
1.08005e+5	1.55281e+13
1.08138e+5	1.54065e+13
1.08271e+5	1.52859e+13
1.08405e+5	1.51662e+13
1.08538e+5	1.50474e+13
1.08671e+5	1.49296e+13
1.08805e+5	1.48126e+13
1.08938e+5	1.46966e+13
1.09071e+5	1.45814e+13
1.09205e+5	1.44672e+13
1.09338e+5	1.43538e+13
1.09471e+5	1.42413e+13
1.09605e+5	1.41297e+13
1.09738e+5	1.40189e+13
1.09871e+5	1.39090e+13
1.10004e+5	1.38000e+13
1.10138e+5	1.36917e+13
1.10271e+5	1.35844e+13
1.10404e+5	1.34778e+13
1.10538e+5	1.33721e+13
1.10671e+5	1.32672e+13
1.10804e+5	1.31631e+13
1.10938e+5	1.30599e+13
1.11071e+5	1.29574e+13
1.11204e+5	1.28557e+13
1.11338e+5	1.27548e+13
1.11471e+5	1.26547e+13
1.11604e+5	1.25553e+13
1.11738e+5	1.24568e+13
1.11871e+5	1.23590e+13
1.12004e+5	1.22619e+13
1.12138e+5	1.21656e+13
1.12271e+5	1.20701e+13
1.12404e+5	1.19753e+13
1.12538e+5	1.18812e+13
1.12671e+5	1.17879e+13
1.12804e+5	1.16953e+13
1.12938e+5	1.16034e+13
1.13071e+5	1.15122e+13
1.13204e+5	1.14217e+13
1.13338e+5	1.13319e+13
1.13471e+5	1.12429e+13
1.13604e+5	1.11545e+13
1.13738e+5	1.10668e+13
1.13871e+5	1.09798e+13
1.14004e+5	1.08934e+13
1.14138e+5	1.08078e+13
1.14271e+5	1.07228e+13
1.14404e+5	1.06384e+13
1.14538e+5	1.05547e+13
1.14671e+5	1.04717e+13
1.14804e+5	1.03893e+13
1.14938e+5	1.03076e+13
1.15071e+5	1.02264e+13
1.15204e+5	1.01460e+13
1.15338e+5	1.00661e+13
1.15471e+5	9.98687e+12
